BEGIN_SCAN_DATA
	FORMAT=CC-Export V1.9                  
	FILE_CREATION_DATE=26-Oct-2022 19:14:43
	LAST_MODIFIED=26-Oct-2022 19:14:43
	BEGIN_SCAN  1
		TASK_NAME=tba PDD Profiles
		PROGRAM=WaterTankScans
		COMMENT=Gemelli
		MEAS_DATE=08-Feb-2021 09:38:10
		LINAC=MRIdian
		MODALITY=X
		ISOCENTER=900.00
		INPLANE_AXIS=Y
		CROSSPLANE_AXIS=X
		DEPTH_AXIS=Depth
		INPLANE_AXIS_DIR=TARGET_GUN
		CROSSPLANE_AXIS_DIR=LEFT_RIGHT
		DEPTH_AXIS_DIR=UP_DOWN
		ENERGY=6.00
		NOMINAL_DMAX=15.00
		SSD=850.00
		SCD=450.00
		WEDGE_ANGLE=0.00
		FIELD_INPLANE=41.50
		FIELD_CROSSPLANE=41.50
		FIELD_TYPE=RECTANGULAR
		GANTRY=0.00
		GANTRY_UPRIGHT_POSITION=0
		GANTRY_ROTATION=CW
		COLL_ANGLE=0.00
		COLL_OFFSET_INPLANE=0.00
		COLL_OFFSET_CROSSPLANE=0.00
		SCAN_DEVICE=BeamScan
		SCAN_DEVICE_SETUP=BARA_LEFT_RIGHT
		ELECTROMETER=BeamScan
		RANGE_FIELD=LOW
		RANGE_REFERENCE=MEDIUM
		DETECTOR=THIMBLE_CHAMBER
		DETECTOR_RADIUS=2.40
		DETECTOR_NAME=A28MR
		DETECTOR_SN=-
		DETECTOR_CALIBRATION=588000000.00
		DETECTOR_IS_CALIBRATED=0
		DETECTOR_REFERENCE=THIMBLE_CHAMBER
		DETECTOR_REFERENCE_RADIUS=2.75
		DETECTOR_REFERENCE_NAME=A28MR
		DETECTOR_REFERENCE_SN=—
		DETECTOR_REFERENCE_IS_CALIBRATED=0
		DETECTOR_REFERENCE_CALIBRATION=303000000.00
		DETECTOR_HV=300.0
		DETECTOR_REFERENCE_HV=300.0
		DETECTOR_ORIENTATION=HORIZONTAL
		FILTER=FFF
		SCAN_SPEED_PROFILE=10.00
		SCAN_PROF_SPEED_DEP=DEPTH
		SCAN_SPEED_PDD=0.00
		SCAN_PDD_SPEED_DEP=ENERGY
		DETECTOR_TYPE=A28MR
		REF_FIELD_DEPTH=220.00
		REF_FIELD_DEFINED=ISOCENTER
		REF_FIELD_INPLANE=100.00
		REF_FIELD_CROSSPLANE=100.00
		REF_SCAN_POSITIONS=-85.00;-84.00;-83.00;-82.00;-81.00;-80.00;-79.00;-78.00;-77.00;-76.00;-75.00;-74.00;-73.00;-72.00;-71.00;-70.00;-69.00;-68.00;-67.00;-66.00;-65.00;-64.00;-63.00;-62.00;-61.00;-60.00;-59.00;-58.00;-57.00;-56.00;-55.00;-54.00;-53.00;-52.00;-51.00;-50.00;-49.00;-48.00;-47.00;-46.00;-45.00;-44.00;-43.00;-42.00;-41.00;-40.00;-39.00;-38.00;-37.00;-36.00;-35.00;-34.00;-33.00;-32.00;-31.00;-30.00;-29.00;-28.00;-27.00;-26.00;-25.00;-24.00;-23.00;-22.00;-21.00;-20.00;-19.00;-18.00;-17.00;-16.00;-15.00;-14.00;-13.00;-12.00;-11.00;-10.00;-9.00;-8.00;-7.00;-6.00;-5.00;-4.00;-3.00;-2.00;-1.00;0.00;1.00;2.00;3.00;4.00;5.00;6.00;7.00;8.00;9.00;10.00;11.00;12.00;13.00;14.00;15.00;16.00;17.00;18.00;19.00;20.00;21.00;22.00;23.00;24.00;25.00;26.00;27.00;28.00;29.00;30.00;31.00;32.00;33.00;34.00;35.00;36.00;37.00;38.00;39.00;40.00;41.00;42.00;43.00;44.00;45.00;46.00;47.00;48.00;49.00;50.00;51.00;52.00;53.00;54.00;55.00;56.00;57.00;58.00;59.00;60.00;61.00;62.00;63.00;64.00;65.00;66.00;67.00;68.00;69.00;70.00;71.00;72.00;73.00;74.00;75.00;76.00;77.00;78.00;79.00;80.00;81.00;82.00;83.00;84.00;85.00;
		REF_OVERSCAN_FACTOR=1.00
		SCAN_CURVETYPE=INPLANE_PROFILE
		SCAN_DEPTH=20.00
		SCAN_OFFAXIS_INPLANE=0.00
		SCAN_OFFAXIS_CROSSPLANE=0.00
		SCAN_ANGLE=0.00
		SCAN_DIAGONAL=NOT_DIAGONAL
		SCAN_DIRECTION=POSITIVE
		MEAS_MEDIUM=WATER
		MEAS_PRESET=MEAS_CONTINUOUS_REFERENCE_SCAN
		MEAS_TIME=0.100
		MEAS_UNIT=A.U.
		INCLINATION_ANGLE=0.00
		PRESSURE=1013.25
		TEMPERATURE=20.00
		NORM_TEMPERATURE=20.00
		CORRECTION_FACTOR=1.0000
		EXPECTED_MAX_DOSE_RATE=3.00
		EPOM_DEPTH_SHIFT=0.2
		EPOM_MODE=SHIFT_PROTOCOL
		CORRECTIONS=SMOOTHED_CORR;CAX_CORR;INTERPOLATED_CORR;
		BEGIN_DATA
			-50.50		2.6632E+00
			-50.00		2.6207E+00
			-49.50		2.6370E+00
			-49.00		2.6785E+00
			-48.50		2.7295E+00
			-48.00		2.7845E+00
			-47.50		2.8486E+00
			-47.00		2.9166E+00
			-46.50		2.9853E+00
			-46.00		3.0543E+00
			-45.50		3.1103E+00
			-45.00		3.1608E+00
			-44.50		3.2289E+00
			-44.00		3.3051E+00
			-43.50		3.3789E+00
			-43.00		3.4517E+00
			-42.50		3.5498E+00
			-42.00		3.6598E+00
			-41.50		3.7582E+00
			-41.00		3.8511E+00
			-40.50		3.9441E+00
			-40.00		4.0371E+00
			-39.50		4.1583E+00
			-39.00		4.2917E+00
			-38.50		4.4220E+00
			-38.00		4.5512E+00
			-37.50		4.7044E+00
			-37.00		4.8679E+00
			-36.50		5.0269E+00
			-36.00		5.1839E+00
			-35.50		5.3765E+00
			-35.00		5.5845E+00
			-34.50		5.8251E+00
			-34.00		6.0812E+00
			-33.50		6.3663E+00
			-33.00		6.6638E+00
			-32.50		7.0063E+00
			-32.00		7.3699E+00
			-31.50		7.8117E+00
			-31.00		8.2869E+00
			-30.50		8.8882E+00
			-30.00		9.5488E+00
			-29.50		10.324E+00
			-29.00		11.148E+00
			-28.50		12.206E+00
			-28.00		13.364E+00
			-27.50		14.858E+00
			-27.00		16.494E+00
			-26.50		18.812E+00
			-26.00		21.421E+00
			-25.50		25.527E+00
			-25.00		30.275E+00
			-24.50		38.621E+00
			-24.00		48.509E+00
			-23.50		62.480E+00
			-23.00		78.200E+00
			-22.50		96.824E+00
			-22.00		116.81E+00
			-21.50		138.65E+00
			-21.00		161.29E+00
			-20.50		184.24E+00
			-20.00		207.32E+00
			-19.50		229.81E+00
			-19.00		252.02E+00
			-18.50		272.16E+00
			-18.00		291.33E+00
			-17.50		308.11E+00
			-17.00		323.76E+00
			-16.50		336.56E+00
			-16.00		348.14E+00
			-15.50		357.38E+00
			-15.00		365.72E+00
			-14.50		372.65E+00
			-14.00		378.92E+00
			-13.50		383.99E+00
			-13.00		388.49E+00
			-12.50		391.75E+00
			-12.00		394.44E+00
			-11.50		396.53E+00
			-11.00		398.31E+00
			-10.50		399.89E+00
			-10.00		401.39E+00
			-9.50		402.59E+00
			-9.00		403.65E+00
			-8.50		404.47E+00
			-8.00		405.18E+00
			-7.50		405.76E+00
			-7.00		406.28E+00
			-6.50		406.71E+00
			-6.00		407.11E+00
			-5.50		407.41E+00
			-5.00		407.68E+00
			-4.50		407.87E+00
			-4.00		408.02E+00
			-3.50		408.11E+00
			-3.00		408.19E+00
			-2.50		408.23E+00
			-2.00		408.26E+00
			-1.50		408.24E+00
			-1.00		408.20E+00
			-0.50		408.07E+00
			0.00		407.89E+00
			0.50		407.65E+00
			1.00		407.38E+00
			1.50		407.12E+00
			2.00		406.87E+00
			2.50		406.63E+00
			3.00		406.39E+00
			3.50		406.10E+00
			4.00		405.78E+00
			4.50		405.42E+00
			5.00		405.04E+00
			5.50		404.66E+00
			6.00		404.28E+00
			6.50		403.90E+00
			7.00		403.52E+00
			7.50		403.10E+00
			8.00		402.67E+00
			8.50		402.14E+00
			9.00		401.57E+00
			9.50		400.87E+00
			10.00		400.10E+00
			10.50		399.19E+00
			11.00		398.20E+00
			11.50		397.01E+00
			12.00		395.73E+00
			12.50		394.28E+00
			13.00		392.74E+00
			13.50		390.35E+00
			14.00		387.51E+00
			14.50		383.30E+00
			15.00		378.45E+00
			15.50		370.24E+00
			16.00		360.45E+00
			16.50		347.24E+00
			17.00		332.43E+00
			17.50		314.55E+00
			18.00		295.09E+00
			18.50		274.25E+00
			19.00		252.76E+00
			19.50		230.26E+00
			20.00		207.28E+00
			20.50		184.89E+00
			21.00		162.78E+00
			21.50		142.61E+00
			22.00		123.36E+00
			22.50		106.59E+00
			23.00		90.984E+00
			23.50		77.982E+00
			24.00		66.206E+00
			24.50		56.535E+00
			25.00		47.948E+00
			25.50		40.963E+00
			26.00		34.732E+00
			26.50		29.721E+00
			27.00		25.285E+00
			27.50		21.862E+00
			28.00		18.961E+00
			28.50		16.728E+00
			29.00		14.839E+00
			29.50		13.354E+00
			30.00		12.059E+00
			30.50		11.068E+00
			31.00		10.221E+00
			31.50		9.5334E+00
			32.00		8.9208E+00
			32.50		8.4252E+00
			33.00		7.9797E+00
			33.50		7.5961E+00
			34.00		7.2391E+00
			34.50		6.9441E+00
			35.00		6.6756E+00
			35.50		6.4309E+00
			36.00		6.1964E+00
			36.50		5.9836E+00
			37.00		5.7801E+00
			37.50		5.6051E+00
			38.00		5.4435E+00
			38.50		5.2630E+00
			39.00		5.0744E+00
			39.50		4.9312E+00
			40.00		4.8095E+00
			40.50		4.6901E+00
			41.00		4.5716E+00
			41.50		4.4709E+00
			42.00		4.3778E+00
			42.50		4.2654E+00
			43.00		4.1439E+00
			43.50		4.0576E+00
			44.00		3.9879E+00
			44.50		3.8900E+00
			45.00		3.7800E+00
			45.50		3.7099E+00
			46.00		3.6569E+00
			46.50		3.5852E+00
			47.00		3.5055E+00
			47.50		3.4309E+00
			48.00		3.3587E+00
			48.50		3.2957E+00
			49.00		3.2367E+00
		END_DATA
	END_SCAN  1
	BEGIN_SCAN  2
		TASK_NAME=tba PDD Profiles
		PROGRAM=WaterTankScans
		COMMENT=Gemelli
		MEAS_DATE=08-Feb-2021 09:38:10
		LINAC=MRIdian
		MODALITY=X
		ISOCENTER=900.00
		INPLANE_AXIS=Y
		CROSSPLANE_AXIS=X
		DEPTH_AXIS=Depth
		INPLANE_AXIS_DIR=TARGET_GUN
		CROSSPLANE_AXIS_DIR=LEFT_RIGHT
		DEPTH_AXIS_DIR=UP_DOWN
		ENERGY=6.00
		NOMINAL_DMAX=15.00
		SSD=850.00
		SCD=450.00
		WEDGE_ANGLE=0.00
		FIELD_INPLANE=41.50
		FIELD_CROSSPLANE=41.50
		FIELD_TYPE=RECTANGULAR
		GANTRY=0.00
		GANTRY_UPRIGHT_POSITION=0
		GANTRY_ROTATION=CW
		COLL_ANGLE=0.00
		COLL_OFFSET_INPLANE=0.00
		COLL_OFFSET_CROSSPLANE=0.00
		SCAN_DEVICE=BeamScan
		SCAN_DEVICE_SETUP=BARA_LEFT_RIGHT
		ELECTROMETER=BeamScan
		RANGE_FIELD=LOW
		RANGE_REFERENCE=MEDIUM
		DETECTOR=THIMBLE_CHAMBER
		DETECTOR_RADIUS=2.40
		DETECTOR_NAME=A28MR
		DETECTOR_SN=-
		DETECTOR_CALIBRATION=588000000.00
		DETECTOR_IS_CALIBRATED=0
		DETECTOR_REFERENCE=THIMBLE_CHAMBER
		DETECTOR_REFERENCE_RADIUS=2.75
		DETECTOR_REFERENCE_NAME=A28MR
		DETECTOR_REFERENCE_SN=—
		DETECTOR_REFERENCE_IS_CALIBRATED=0
		DETECTOR_REFERENCE_CALIBRATION=303000000.00
		DETECTOR_HV=300.0
		DETECTOR_REFERENCE_HV=300.0
		DETECTOR_ORIENTATION=HORIZONTAL
		FILTER=FFF
		SCAN_SPEED_PROFILE=10.00
		SCAN_PROF_SPEED_DEP=DEPTH
		SCAN_SPEED_PDD=0.00
		SCAN_PDD_SPEED_DEP=ENERGY
		DETECTOR_TYPE=A28MR
		REF_FIELD_DEPTH=220.00
		REF_FIELD_DEFINED=ISOCENTER
		REF_FIELD_INPLANE=100.00
		REF_FIELD_CROSSPLANE=100.00
		REF_SCAN_POSITIONS=-85.00;-84.00;-83.00;-82.00;-81.00;-80.00;-79.00;-78.00;-77.00;-76.00;-75.00;-74.00;-73.00;-72.00;-71.00;-70.00;-69.00;-68.00;-67.00;-66.00;-65.00;-64.00;-63.00;-62.00;-61.00;-60.00;-59.00;-58.00;-57.00;-56.00;-55.00;-54.00;-53.00;-52.00;-51.00;-50.00;-49.00;-48.00;-47.00;-46.00;-45.00;-44.00;-43.00;-42.00;-41.00;-40.00;-39.00;-38.00;-37.00;-36.00;-35.00;-34.00;-33.00;-32.00;-31.00;-30.00;-29.00;-28.00;-27.00;-26.00;-25.00;-24.00;-23.00;-22.00;-21.00;-20.00;-19.00;-18.00;-17.00;-16.00;-15.00;-14.00;-13.00;-12.00;-11.00;-10.00;-9.00;-8.00;-7.00;-6.00;-5.00;-4.00;-3.00;-2.00;-1.00;0.00;1.00;2.00;3.00;4.00;5.00;6.00;7.00;8.00;9.00;10.00;11.00;12.00;13.00;14.00;15.00;16.00;17.00;18.00;19.00;20.00;21.00;22.00;23.00;24.00;25.00;26.00;27.00;28.00;29.00;30.00;31.00;32.00;33.00;34.00;35.00;36.00;37.00;38.00;39.00;40.00;41.00;42.00;43.00;44.00;45.00;46.00;47.00;48.00;49.00;50.00;51.00;52.00;53.00;54.00;55.00;56.00;57.00;58.00;59.00;60.00;61.00;62.00;63.00;64.00;65.00;66.00;67.00;68.00;69.00;70.00;71.00;72.00;73.00;74.00;75.00;76.00;77.00;78.00;79.00;80.00;81.00;82.00;83.00;84.00;85.00;
		REF_OVERSCAN_FACTOR=1.00
		SCAN_CURVETYPE=INPLANE_PROFILE
		SCAN_DEPTH=55.00
		SCAN_OFFAXIS_INPLANE=0.00
		SCAN_OFFAXIS_CROSSPLANE=0.00
		SCAN_ANGLE=0.00
		SCAN_DIAGONAL=NOT_DIAGONAL
		SCAN_DIRECTION=POSITIVE
		MEAS_MEDIUM=WATER
		MEAS_PRESET=MEAS_CONTINUOUS_REFERENCE_SCAN
		MEAS_TIME=0.100
		MEAS_UNIT=A.U.
		INCLINATION_ANGLE=0.00
		PRESSURE=1013.25
		TEMPERATURE=20.00
		NORM_TEMPERATURE=20.00
		CORRECTION_FACTOR=1.0000
		EXPECTED_MAX_DOSE_RATE=3.00
		EPOM_DEPTH_SHIFT=0.2
		EPOM_MODE=SHIFT_PROTOCOL
		CORRECTIONS=SMOOTHED_CORR;CAX_CORR;INTERPOLATED_CORR;
		BEGIN_DATA
			-50.50		4.0550E+00
			-50.00		4.0616E+00
			-49.50		4.0891E+00
			-49.00		4.1569E+00
			-48.50		4.2364E+00
			-48.00		4.3409E+00
			-47.50		4.4499E+00
			-47.00		4.5684E+00
			-46.50		4.6829E+00
			-46.00		4.7889E+00
			-45.50		4.8981E+00
			-45.00		5.0139E+00
			-44.50		5.1339E+00
			-44.00		5.2637E+00
			-43.50		5.4011E+00
			-43.00		5.5546E+00
			-42.50		5.7079E+00
			-42.00		5.8609E+00
			-41.50		6.0244E+00
			-41.00		6.2122E+00
			-40.50		6.3979E+00
			-40.00		6.5789E+00
			-39.50		6.7569E+00
			-39.00		6.9284E+00
			-38.50		7.1122E+00
			-38.00		7.3222E+00
			-37.50		7.5421E+00
			-37.00		7.7831E+00
			-36.50		8.0481E+00
			-36.00		8.3641E+00
			-35.50		8.6802E+00
			-35.00		8.9966E+00
			-34.50		9.3330E+00
			-34.00		9.7163E+00
			-33.50		10.111E+00
			-33.00		10.530E+00
			-32.50		11.004E+00
			-32.00		11.603E+00
			-31.50		12.208E+00
			-31.00		12.827E+00
			-30.50		13.506E+00
			-30.00		14.324E+00
			-29.50		15.240E+00
			-29.00		16.381E+00
			-28.50		17.661E+00
			-28.00		19.232E+00
			-27.50		21.037E+00
			-27.00		23.339E+00
			-26.50		26.199E+00
			-26.00		30.357E+00
			-25.50		35.693E+00
			-25.00		43.777E+00
			-24.50		53.233E+00
			-24.00		65.605E+00
			-23.50		78.866E+00
			-23.00		94.015E+00
			-22.50		109.75E+00
			-22.00		126.85E+00
			-21.50		144.21E+00
			-21.00		162.11E+00
			-20.50		179.67E+00
			-20.00		196.50E+00
			-19.50		212.66E+00
			-19.00		227.27E+00
			-18.50		241.02E+00
			-18.00		252.80E+00
			-17.50		263.78E+00
			-17.00		272.91E+00
			-16.50		281.29E+00
			-16.00		287.91E+00
			-15.50		293.98E+00
			-15.00		298.86E+00
			-14.50		303.41E+00
			-14.00		307.19E+00
			-13.50		310.61E+00
			-13.00		313.17E+00
			-12.50		315.38E+00
			-12.00		316.79E+00
			-11.50		318.16E+00
			-11.00		319.45E+00
			-10.50		320.66E+00
			-10.00		321.69E+00
			-9.50		322.64E+00
			-9.00		323.38E+00
			-8.50		324.07E+00
			-8.00		324.60E+00
			-7.50		325.09E+00
			-7.00		325.47E+00
			-6.50		325.83E+00
			-6.00		326.11E+00
			-5.50		326.37E+00
			-5.00		326.58E+00
			-4.50		326.77E+00
			-4.00		326.92E+00
			-3.50		327.06E+00
			-3.00		327.16E+00
			-2.50		327.25E+00
			-2.00		327.29E+00
			-1.50		327.31E+00
			-1.00		327.27E+00
			-0.50		327.22E+00
			0.00		327.12E+00
			0.50		327.01E+00
			1.00		326.84E+00
			1.50		326.66E+00
			2.00		326.43E+00
			2.50		326.19E+00
			3.00		325.92E+00
			3.50		325.66E+00
			4.00		325.42E+00
			4.50		325.17E+00
			5.00		324.95E+00
			5.50		324.70E+00
			6.00		324.42E+00
			6.50		324.12E+00
			7.00		323.74E+00
			7.50		323.33E+00
			8.00		322.87E+00
			8.50		322.38E+00
			9.00		321.83E+00
			9.50		321.25E+00
			10.00		320.58E+00
			10.50		319.86E+00
			11.00		319.02E+00
			11.50		318.10E+00
			12.00		317.02E+00
			12.50		315.84E+00
			13.00		314.42E+00
			13.50		312.83E+00
			14.00		310.83E+00
			14.50		308.64E+00
			15.00		306.03E+00
			15.50		302.66E+00
			16.00		297.49E+00
			16.50		291.05E+00
			17.00		281.65E+00
			17.50		271.22E+00
			18.00		258.40E+00
			18.50		244.86E+00
			19.00		229.61E+00
			19.50		213.85E+00
			20.00		196.79E+00
			20.50		179.53E+00
			21.00		161.82E+00
			21.50		144.55E+00
			22.00		128.29E+00
			22.50		112.80E+00
			23.00		99.096E+00
			23.50		86.193E+00
			24.00		75.155E+00
			24.50		64.963E+00
			25.00		56.745E+00
			25.50		49.178E+00
			26.00		43.129E+00
			26.50		37.546E+00
			27.00		33.051E+00
			27.50		28.924E+00
			28.00		25.742E+00
			28.50		22.863E+00
			29.00		20.691E+00
			29.50		18.729E+00
			30.00		17.254E+00
			30.50		15.913E+00
			31.00		14.885E+00
			31.50		13.937E+00
			32.00		13.177E+00
			32.50		12.467E+00
			33.00		11.863E+00
			33.50		11.302E+00
			34.00		10.835E+00
			34.50		10.398E+00
			35.00		10.025E+00
			35.50		9.6638E+00
			36.00		9.3257E+00
			36.50		8.9961E+00
			37.00		8.6865E+00
			37.50		8.4080E+00
			38.00		8.1957E+00
			38.50		7.9763E+00
			39.00		7.7408E+00
			39.50		7.5162E+00
			40.00		7.3167E+00
			40.50		7.1159E+00
			41.00		6.9124E+00
			41.50		6.7181E+00
			42.00		6.5433E+00
			42.50		6.3642E+00
			43.00		6.1748E+00
			43.50		6.0079E+00
			44.00		5.8889E+00
			44.50		5.7600E+00
			45.00		5.6100E+00
			45.50		5.4739E+00
			46.00		5.3674E+00
			46.50		5.2580E+00
			47.00		5.1425E+00
			47.50		5.0291E+00
			48.00		4.9201E+00
			48.50		4.8083E+00
			49.00		4.6905E+00
		END_DATA
	END_SCAN  2
	BEGIN_SCAN  3
		TASK_NAME=tba PDD Profiles
		PROGRAM=WaterTankScans
		COMMENT=Gemelli
		MEAS_DATE=08-Feb-2021 09:38:10
		LINAC=MRIdian
		MODALITY=X
		ISOCENTER=900.00
		INPLANE_AXIS=Y
		CROSSPLANE_AXIS=X
		DEPTH_AXIS=Depth
		INPLANE_AXIS_DIR=TARGET_GUN
		CROSSPLANE_AXIS_DIR=LEFT_RIGHT
		DEPTH_AXIS_DIR=UP_DOWN
		ENERGY=6.00
		NOMINAL_DMAX=15.00
		SSD=850.00
		SCD=450.00
		WEDGE_ANGLE=0.00
		FIELD_INPLANE=41.50
		FIELD_CROSSPLANE=41.50
		FIELD_TYPE=RECTANGULAR
		GANTRY=0.00
		GANTRY_UPRIGHT_POSITION=0
		GANTRY_ROTATION=CW
		COLL_ANGLE=0.00
		COLL_OFFSET_INPLANE=0.00
		COLL_OFFSET_CROSSPLANE=0.00
		SCAN_DEVICE=BeamScan
		SCAN_DEVICE_SETUP=BARA_LEFT_RIGHT
		ELECTROMETER=BeamScan
		RANGE_FIELD=LOW
		RANGE_REFERENCE=MEDIUM
		DETECTOR=THIMBLE_CHAMBER
		DETECTOR_RADIUS=2.40
		DETECTOR_NAME=A28MR
		DETECTOR_SN=-
		DETECTOR_CALIBRATION=588000000.00
		DETECTOR_IS_CALIBRATED=0
		DETECTOR_REFERENCE=THIMBLE_CHAMBER
		DETECTOR_REFERENCE_RADIUS=2.75
		DETECTOR_REFERENCE_NAME=A28MR
		DETECTOR_REFERENCE_SN=—
		DETECTOR_REFERENCE_IS_CALIBRATED=0
		DETECTOR_REFERENCE_CALIBRATION=303000000.00
		DETECTOR_HV=300.0
		DETECTOR_REFERENCE_HV=300.0
		DETECTOR_ORIENTATION=HORIZONTAL
		FILTER=FFF
		SCAN_SPEED_PROFILE=10.00
		SCAN_PROF_SPEED_DEP=DEPTH
		SCAN_SPEED_PDD=0.00
		SCAN_PDD_SPEED_DEP=ENERGY
		DETECTOR_TYPE=A28MR
		REF_FIELD_DEPTH=220.00
		REF_FIELD_DEFINED=ISOCENTER
		REF_FIELD_INPLANE=100.00
		REF_FIELD_CROSSPLANE=100.00
		REF_SCAN_POSITIONS=-85.00;-84.00;-83.00;-82.00;-81.00;-80.00;-79.00;-78.00;-77.00;-76.00;-75.00;-74.00;-73.00;-72.00;-71.00;-70.00;-69.00;-68.00;-67.00;-66.00;-65.00;-64.00;-63.00;-62.00;-61.00;-60.00;-59.00;-58.00;-57.00;-56.00;-55.00;-54.00;-53.00;-52.00;-51.00;-50.00;-49.00;-48.00;-47.00;-46.00;-45.00;-44.00;-43.00;-42.00;-41.00;-40.00;-39.00;-38.00;-37.00;-36.00;-35.00;-34.00;-33.00;-32.00;-31.00;-30.00;-29.00;-28.00;-27.00;-26.00;-25.00;-24.00;-23.00;-22.00;-21.00;-20.00;-19.00;-18.00;-17.00;-16.00;-15.00;-14.00;-13.00;-12.00;-11.00;-10.00;-9.00;-8.00;-7.00;-6.00;-5.00;-4.00;-3.00;-2.00;-1.00;0.00;1.00;2.00;3.00;4.00;5.00;6.00;7.00;8.00;9.00;10.00;11.00;12.00;13.00;14.00;15.00;16.00;17.00;18.00;19.00;20.00;21.00;22.00;23.00;24.00;25.00;26.00;27.00;28.00;29.00;30.00;31.00;32.00;33.00;34.00;35.00;36.00;37.00;38.00;39.00;40.00;41.00;42.00;43.00;44.00;45.00;46.00;47.00;48.00;49.00;50.00;51.00;52.00;53.00;54.00;55.00;56.00;57.00;58.00;59.00;60.00;61.00;62.00;63.00;64.00;65.00;66.00;67.00;68.00;69.00;70.00;71.00;72.00;73.00;74.00;75.00;76.00;77.00;78.00;79.00;80.00;81.00;82.00;83.00;84.00;85.00;
		REF_OVERSCAN_FACTOR=1.00
		SCAN_CURVETYPE=INPLANE_PROFILE
		SCAN_DEPTH=100.00
		SCAN_OFFAXIS_INPLANE=0.00
		SCAN_OFFAXIS_CROSSPLANE=0.00
		SCAN_ANGLE=0.00
		SCAN_DIAGONAL=NOT_DIAGONAL
		SCAN_DIRECTION=POSITIVE
		MEAS_MEDIUM=WATER
		MEAS_PRESET=MEAS_CONTINUOUS_REFERENCE_SCAN
		MEAS_TIME=0.100
		MEAS_UNIT=A.U.
		INCLINATION_ANGLE=0.00
		PRESSURE=1013.25
		TEMPERATURE=20.00
		NORM_TEMPERATURE=20.00
		CORRECTION_FACTOR=1.0000
		EXPECTED_MAX_DOSE_RATE=3.00
		EPOM_DEPTH_SHIFT=0.2
		EPOM_MODE=SHIFT_PROTOCOL
		CORRECTIONS=MODIFIED_CORR;SMOOTHED_CORR;CAX_CORR;INTERPOLATED_CORR;
		BEGIN_DATA
			-50.00		5.3064E+00
			-49.50		5.3064E+00
			-49.00		5.3064E+00
			-48.50		5.3064E+00
			-48.00		5.4452E+00
			-47.50		5.6493E+00
			-47.00		5.7146E+00
			-46.50		5.7146E+00
			-46.00		5.8493E+00
			-45.50		6.0534E+00
			-45.00		6.2588E+00
			-44.50		6.4650E+00
			-44.00		6.6684E+00
			-43.50		6.8705E+00
			-43.00		6.9392E+00
			-42.50		6.9392E+00
			-42.00		7.0739E+00
			-41.50		7.2779E+00
			-41.00		7.4834E+00
			-40.50		7.6896E+00
			-40.00		7.8943E+00
			-39.50		8.0984E+00
			-39.00		8.3011E+00
			-38.50		8.5032E+00
			-38.00		8.7080E+00
			-37.50		8.9141E+00
			-37.00		9.2576E+00
			-36.50		9.6658E+00
			-36.00		9.9339E+00
			-35.50		10.136E+00
			-35.00		10.474E+00
			-34.50		10.882E+00
			-34.00		11.293E+00
			-33.50		11.705E+00
			-33.00		12.112E+00
			-32.50		12.516E+00
			-32.00		13.058E+00
			-31.50		13.670E+00
			-31.00		14.417E+00
			-30.50		15.233E+00
			-30.00		16.185E+00
			-29.50		17.205E+00
			-29.00		18.495E+00
			-28.50		19.924E+00
			-28.00		21.906E+00
			-27.50		24.174E+00
			-27.00		27.648E+00
			-26.50		31.689E+00
			-26.00		37.689E+00
			-25.50		44.698E+00
			-25.00		53.400E+00
			-24.50		62.897E+00
			-24.00		73.804E+00
			-23.50		85.437E+00
			-23.00		97.475E+00
			-22.50		109.72E+00
			-22.00		122.10E+00
			-21.50		134.55E+00
			-21.00		146.33E+00
			-20.50		157.76E+00
			-20.00		168.11E+00
			-19.50		177.90E+00
			-19.00		186.13E+00
			-18.50		193.55E+00
			-18.00		199.91E+00
			-17.50		205.77E+00
			-17.00		210.73E+00
			-16.50		215.22E+00
			-16.00		218.90E+00
			-15.50		222.17E+00
			-15.00		224.89E+00
			-14.50		227.34E+00
			-14.00		229.19E+00
			-13.50		230.72E+00
			-13.00		232.04E+00
			-12.50		233.27E+00
			-12.00		234.25E+00
			-11.50		235.12E+00
			-11.00		235.85E+00
			-10.50		236.51E+00
			-10.00		237.11E+00
			-9.50		237.67E+00
			-9.00		238.14E+00
			-8.50		238.55E+00
			-8.00		238.89E+00
			-7.50		239.19E+00
			-7.00		239.50E+00
			-6.50		239.80E+00
			-6.00		240.04E+00
			-5.50		240.25E+00
			-5.00		240.39E+00
			-4.50		240.49E+00
			-4.00		240.59E+00
			-3.50		240.69E+00
			-3.00		240.76E+00
			-2.50		240.81E+00
			-2.00		240.83E+00
			-1.50		240.83E+00
			-1.00		240.83E+00
			-0.50		240.83E+00
			0.00		240.80E+00
			0.50		240.75E+00
			1.00		240.66E+00
			1.50		240.56E+00
			2.00		240.46E+00
			2.50		240.35E+00
			3.00		240.22E+00
			3.50		240.07E+00
			4.00		239.88E+00
			4.50		239.68E+00
			5.00		239.47E+00
			5.50		239.27E+00
			6.00		239.07E+00
			6.50		238.86E+00
			7.00		238.62E+00
			7.50		238.37E+00
			8.00		238.04E+00
			8.50		237.69E+00
			9.00		237.33E+00
			9.50		236.97E+00
			10.00		236.61E+00
			10.50		236.26E+00
			11.00		235.80E+00
			11.50		235.29E+00
			12.00		234.68E+00
			12.50		234.02E+00
			13.00		233.22E+00
			13.50		232.35E+00
			14.00		231.26E+00
			14.50		230.04E+00
			15.00		228.61E+00
			15.50		227.09E+00
			16.00		224.83E+00
			16.50		222.15E+00
			17.00		218.17E+00
			17.50		213.52E+00
			18.00		206.97E+00
			18.50		199.34E+00
			19.00		190.41E+00
			19.50		180.82E+00
			20.00		169.88E+00
			20.50		158.25E+00
			21.00		146.21E+00
			21.50		133.97E+00
			22.00		121.86E+00
			22.50		109.81E+00
			23.00		98.312E+00
			23.50		87.086E+00
			24.00		77.268E+00
			24.50		68.175E+00
			25.00		60.152E+00
			25.50		52.730E+00
			26.00		46.705E+00
			26.50		41.398E+00
			27.00		36.793E+00
			27.50		32.550E+00
			28.00		29.063E+00
			28.50		26.001E+00
			29.00		23.463E+00
			29.50		21.217E+00
			30.00		19.486E+00
			30.50		18.043E+00
			31.00		16.878E+00
			31.50		15.858E+00
			32.00		14.972E+00
			32.50		14.156E+00
			33.00		13.470E+00
			33.50		12.852E+00
			34.00		12.376E+00
			34.50		11.968E+00
			35.00		11.560E+00
			35.50		11.152E+00
			36.00		10.746E+00
			36.50		10.342E+00
			37.00		10.070E+00
			37.50		9.8658E+00
			38.00		9.5243E+00
			38.50		9.1120E+00
			39.00		8.8440E+00
			39.50		8.6439E+00
			40.00		8.4400E+00
			40.50		8.2338E+00
			41.00		8.0290E+00
			41.50		7.8249E+00
			42.00		7.6208E+00
			42.50		7.4167E+00
			43.00		7.3473E+00
			43.50		7.3473E+00
			44.00		7.2113E+00
			44.50		7.0051E+00
			45.00		6.8017E+00
			45.50		6.5997E+00
			46.00		6.3949E+00
			46.50		6.1888E+00
			47.00		6.1228E+00
			47.50		6.1228E+00
			48.00		5.9840E+00
			48.50		5.7799E+00
			49.00		5.7146E+00
			49.50		5.7146E+00
		END_DATA
	END_SCAN  3
END_SCAN_DATA
